 # potential for l= 4 and q'= 2.5 fm^-1
 
              #q        vl(q,q')
    1.000000E-02   -3.529263E-07
    2.000000E-02   -3.529799E-07
    3.000000E-02   -3.530693E-07
    4.000000E-02   -3.531944E-07
    5.000000E-02   -3.533553E-07
    6.000000E-02   -3.535518E-07
    7.000000E-02   -3.537841E-07
    8.000000E-02   -3.540521E-07
    9.000000E-02   -3.543557E-07
    1.000000E-01   -3.546951E-07
    1.100000E-01   -3.550700E-07
    1.200000E-01   -3.554805E-07
    1.300000E-01   -3.559267E-07
    1.400000E-01   -3.564083E-07
    1.500000E-01   -3.569255E-07
    1.600000E-01   -3.574781E-07
    1.700000E-01   -3.580662E-07
    1.800000E-01   -3.586897E-07
    1.900000E-01   -3.593485E-07
    2.000000E-01   -3.600426E-07
    2.100000E-01   -3.607720E-07
    2.200000E-01   -3.615366E-07
    2.300000E-01   -3.623363E-07
    2.400000E-01   -3.631711E-07
    2.500000E-01   -3.640409E-07
    2.600000E-01   -3.649457E-07
    2.700000E-01   -3.658854E-07
    2.800000E-01   -3.668599E-07
    2.900000E-01   -3.678692E-07
    3.000000E-01   -3.689131E-07
    3.100000E-01   -3.699917E-07
    3.200000E-01   -3.711047E-07
    3.300000E-01   -3.722522E-07
    3.400000E-01   -3.734341E-07
    3.500000E-01   -3.746501E-07
    3.600000E-01   -3.759004E-07
    3.700000E-01   -3.771847E-07
    3.800000E-01   -3.785029E-07
    3.900000E-01   -3.798550E-07
    4.000000E-01   -3.812408E-07
    4.100000E-01   -3.826603E-07
    4.200000E-01   -3.841133E-07
    4.300000E-01   -3.855996E-07
    4.400000E-01   -3.871193E-07
    4.500000E-01   -3.886721E-07
    4.600000E-01   -3.902579E-07
    4.700000E-01   -3.918765E-07
    4.800000E-01   -3.935279E-07
    4.900000E-01   -3.952119E-07
    5.000000E-01   -3.969284E-07
    5.100000E-01   -3.986771E-07
    5.200000E-01   -4.004580E-07
    5.300000E-01   -4.022709E-07
    5.400000E-01   -4.041156E-07
    5.500000E-01   -4.059919E-07
    5.600000E-01   -4.078997E-07
    5.700000E-01   -4.098388E-07
    5.800000E-01   -4.118090E-07
    5.900000E-01   -4.138101E-07
    6.000000E-01   -4.158420E-07
    6.100000E-01   -4.179044E-07
    6.200000E-01   -4.199971E-07
    6.300000E-01   -4.221199E-07
    6.400000E-01   -4.242727E-07
    6.500000E-01   -4.264551E-07
    6.600000E-01   -4.286671E-07
    6.700000E-01   -4.309082E-07
    6.800000E-01   -4.331784E-07
    6.900000E-01   -4.354773E-07
    7.000000E-01   -4.378048E-07
    7.100000E-01   -4.401605E-07
    7.200000E-01   -4.425443E-07
    7.300000E-01   -4.449558E-07
    7.400000E-01   -4.473948E-07
    7.500000E-01   -4.498610E-07
    7.600000E-01   -4.523541E-07
    7.700000E-01   -4.548739E-07
    7.800000E-01   -4.574200E-07
    7.900000E-01   -4.599921E-07
    8.000000E-01   -4.625900E-07
    8.100000E-01   -4.652134E-07
    8.200000E-01   -4.678618E-07
    8.300000E-01   -4.705350E-07
    8.400000E-01   -4.732327E-07
    8.500000E-01   -4.759544E-07
    8.600000E-01   -4.787000E-07
    8.700000E-01   -4.814689E-07
    8.800000E-01   -4.842609E-07
    8.900000E-01   -4.870756E-07
    9.000000E-01   -4.899125E-07
    9.100000E-01   -4.927714E-07
    9.200000E-01   -4.956519E-07
    9.300000E-01   -4.985534E-07
    9.400000E-01   -5.014757E-07
    9.500000E-01   -5.044183E-07
    9.600000E-01   -5.073808E-07
    9.700000E-01   -5.103627E-07
    9.800000E-01   -5.133637E-07
    9.900000E-01   -5.163832E-07
    1.000000E+00   -5.194209E-07
    1.010000E+00   -5.224763E-07
    1.020000E+00   -5.255489E-07
    1.030000E+00   -5.286381E-07
    1.040000E+00   -5.317437E-07
    1.050000E+00   -5.348649E-07
    1.060000E+00   -5.380015E-07
    1.070000E+00   -5.411527E-07
    1.080000E+00   -5.443182E-07
    1.090000E+00   -5.474973E-07
    1.100000E+00   -5.506897E-07
    1.110000E+00   -5.538946E-07
    1.120000E+00   -5.571116E-07
    1.130000E+00   -5.603401E-07
    1.140000E+00   -5.635795E-07
    1.150000E+00   -5.668293E-07
    1.160000E+00   -5.700888E-07
    1.170000E+00   -5.733575E-07
    1.180000E+00   -5.766348E-07
    1.190000E+00   -5.799200E-07
    1.200000E+00   -5.832126E-07
    1.210000E+00   -5.865119E-07
    1.220000E+00   -5.898172E-07
    1.230000E+00   -5.931280E-07
    1.240000E+00   -5.964435E-07
    1.250000E+00   -5.997631E-07
    1.260000E+00   -6.030862E-07
    1.270000E+00   -6.064120E-07
    1.280000E+00   -6.097399E-07
    1.290000E+00   -6.130691E-07
    1.300000E+00   -6.163990E-07
    1.310000E+00   -6.197289E-07
    1.320000E+00   -6.230579E-07
    1.330000E+00   -6.263855E-07
    1.340000E+00   -6.297108E-07
    1.350000E+00   -6.330331E-07
    1.360000E+00   -6.363517E-07
    1.370000E+00   -6.396657E-07
    1.380000E+00   -6.429745E-07
    1.390000E+00   -6.462773E-07
    1.400000E+00   -6.495732E-07
    1.410000E+00   -6.528615E-07
    1.420000E+00   -6.561413E-07
    1.430000E+00   -6.594120E-07
    1.440000E+00   -6.626726E-07
    1.450000E+00   -6.659223E-07
    1.460000E+00   -6.691604E-07
    1.470000E+00   -6.723859E-07
    1.480000E+00   -6.755981E-07
    1.490000E+00   -6.787962E-07
    1.500000E+00   -6.819792E-07
    1.510000E+00   -6.851463E-07
    1.520000E+00   -6.882966E-07
    1.530000E+00   -6.914294E-07
    1.540000E+00   -6.945437E-07
    1.550000E+00   -6.976386E-07
    1.560000E+00   -7.007134E-07
    1.570000E+00   -7.037670E-07
    1.580000E+00   -7.067986E-07
    1.590000E+00   -7.098074E-07
    1.600000E+00   -7.127924E-07
    1.610000E+00   -7.157528E-07
    1.620000E+00   -7.186877E-07
    1.630000E+00   -7.215961E-07
    1.640000E+00   -7.244772E-07
    1.650000E+00   -7.273300E-07
    1.660000E+00   -7.301537E-07
    1.670000E+00   -7.329474E-07
    1.680000E+00   -7.357102E-07
    1.690000E+00   -7.384412E-07
    1.700000E+00   -7.411394E-07
    1.710000E+00   -7.438040E-07
    1.720000E+00   -7.464341E-07
    1.730000E+00   -7.490288E-07
    1.740000E+00   -7.515872E-07
    1.750000E+00   -7.541084E-07
    1.760000E+00   -7.565916E-07
    1.770000E+00   -7.590358E-07
    1.780000E+00   -7.614401E-07
    1.790000E+00   -7.638038E-07
    1.800000E+00   -7.661259E-07
    1.810000E+00   -7.684055E-07
    1.820000E+00   -7.706419E-07
    1.830000E+00   -7.728341E-07
    1.840000E+00   -7.749814E-07
    1.850000E+00   -7.770828E-07
    1.860000E+00   -7.791376E-07
    1.870000E+00   -7.811449E-07
    1.880000E+00   -7.831040E-07
    1.890000E+00   -7.850140E-07
    1.900000E+00   -7.868742E-07
    1.910000E+00   -7.886837E-07
    1.920000E+00   -7.904418E-07
    1.930000E+00   -7.921478E-07
    1.940000E+00   -7.938009E-07
    1.950000E+00   -7.954003E-07
    1.960000E+00   -7.969454E-07
    1.970000E+00   -7.984354E-07
    1.980000E+00   -7.998697E-07
    1.990000E+00   -8.012475E-07
    2.000000E+00   -8.025683E-07
    2.010000E+00   -8.038314E-07
    2.020000E+00   -8.050361E-07
    2.030000E+00   -8.061818E-07
    2.040000E+00   -8.072680E-07
    2.050000E+00   -8.082940E-07
    2.060000E+00   -8.092593E-07
    2.070000E+00   -8.101634E-07
    2.080000E+00   -8.110057E-07
    2.090000E+00   -8.117858E-07
    2.100000E+00   -8.125031E-07
    2.110000E+00   -8.131572E-07
    2.120000E+00   -8.137477E-07
    2.130000E+00   -8.142741E-07
    2.140000E+00   -8.147360E-07
    2.150000E+00   -8.151331E-07
    2.160000E+00   -8.154649E-07
    2.170000E+00   -8.157313E-07
    2.180000E+00   -8.159317E-07
    2.190000E+00   -8.160661E-07
    2.200000E+00   -8.161340E-07
    2.210000E+00   -8.161354E-07
    2.220000E+00   -8.160698E-07
    2.230000E+00   -8.159373E-07
    2.240000E+00   -8.157375E-07
    2.250000E+00   -8.154703E-07
    2.260000E+00   -8.151357E-07
    2.270000E+00   -8.147336E-07
    2.280000E+00   -8.142638E-07
    2.290000E+00   -8.137263E-07
    2.300000E+00   -8.131212E-07
    2.310000E+00   -8.124484E-07
    2.320000E+00   -8.117079E-07
    2.330000E+00   -8.108998E-07
    2.340000E+00   -8.100243E-07
    2.350000E+00   -8.090814E-07
    2.360000E+00   -8.080712E-07
    2.370000E+00   -8.069939E-07
    2.380000E+00   -8.058498E-07
    2.390000E+00   -8.046390E-07
    2.400000E+00   -8.033617E-07
    2.410000E+00   -8.020182E-07
    2.420000E+00   -8.006089E-07
    2.430000E+00   -7.991340E-07
    2.440000E+00   -7.975938E-07
    2.450000E+00   -7.959888E-07
    2.460000E+00   -7.943193E-07
    2.470000E+00   -7.925857E-07
    2.480000E+00   -7.907885E-07
    2.490000E+00   -7.889281E-07
    2.500000E+00   -7.870050E-07
    2.510000E+00   -7.850197E-07
    2.520000E+00   -7.829727E-07
    2.530000E+00   -7.808647E-07
    2.540000E+00   -7.786961E-07
    2.550000E+00   -7.764675E-07
    2.560000E+00   -7.741796E-07
    2.570000E+00   -7.718330E-07
    2.580000E+00   -7.694284E-07
    2.590000E+00   -7.669664E-07
    2.600000E+00   -7.644476E-07
    2.610000E+00   -7.618729E-07
    2.620000E+00   -7.592430E-07
    2.630000E+00   -7.565586E-07
    2.640000E+00   -7.538204E-07
    2.650000E+00   -7.510292E-07
    2.660000E+00   -7.481859E-07
    2.670000E+00   -7.452913E-07
    2.680000E+00   -7.423461E-07
    2.690000E+00   -7.393512E-07
    2.700000E+00   -7.363075E-07
    2.710000E+00   -7.332157E-07
    2.720000E+00   -7.300769E-07
    2.730000E+00   -7.268919E-07
    2.740000E+00   -7.236616E-07
    2.750000E+00   -7.203869E-07
    2.760000E+00   -7.170687E-07
    2.770000E+00   -7.137079E-07
    2.780000E+00   -7.103055E-07
    2.790000E+00   -7.068625E-07
    2.800000E+00   -7.033797E-07
    2.810000E+00   -6.998582E-07
    2.820000E+00   -6.962989E-07
    2.830000E+00   -6.927028E-07
    2.840000E+00   -6.890708E-07
    2.850000E+00   -6.854040E-07
    2.860000E+00   -6.817033E-07
    2.870000E+00   -6.779697E-07
    2.880000E+00   -6.742042E-07
    2.890000E+00   -6.704078E-07
    2.900000E+00   -6.665814E-07
    2.910000E+00   -6.627262E-07
    2.920000E+00   -6.588429E-07
    2.930000E+00   -6.549328E-07
    2.940000E+00   -6.509967E-07
    2.950000E+00   -6.470356E-07
    2.960000E+00   -6.430506E-07
    2.970000E+00   -6.390425E-07
    2.980000E+00   -6.350125E-07
    2.990000E+00   -6.309614E-07
    3.000000E+00   -6.268902E-07
    3.010000E+00   -6.228000E-07
    3.020000E+00   -6.186916E-07
    3.030000E+00   -6.145661E-07
    3.040000E+00   -6.104244E-07
    3.050000E+00   -6.062673E-07
    3.060000E+00   -6.020960E-07
    3.070000E+00   -5.979113E-07
    3.080000E+00   -5.937141E-07
    3.090000E+00   -5.895053E-07
    3.100000E+00   -5.852859E-07
    3.110000E+00   -5.810567E-07
    3.120000E+00   -5.768187E-07
    3.130000E+00   -5.725727E-07
    3.140000E+00   -5.683196E-07
    3.150000E+00   -5.640603E-07
    3.160000E+00   -5.597955E-07
    3.170000E+00   -5.555262E-07
    3.180000E+00   -5.512532E-07
    3.190000E+00   -5.469773E-07
    3.200000E+00   -5.426994E-07
    3.210000E+00   -5.384201E-07
    3.220000E+00   -5.341403E-07
    3.230000E+00   -5.298608E-07
    3.240000E+00   -5.255823E-07
    3.250000E+00   -5.213056E-07
    3.260000E+00   -5.170314E-07
    3.270000E+00   -5.127604E-07
    3.280000E+00   -5.084934E-07
    3.290000E+00   -5.042310E-07
    3.300000E+00   -4.999740E-07
    3.310000E+00   -4.957230E-07
    3.320000E+00   -4.914787E-07
    3.330000E+00   -4.872417E-07
    3.340000E+00   -4.830127E-07
    3.350000E+00   -4.787923E-07
    3.360000E+00   -4.745810E-07
    3.370000E+00   -4.703795E-07
    3.380000E+00   -4.661885E-07
    3.390000E+00   -4.620083E-07
    3.400000E+00   -4.578397E-07
    3.410000E+00   -4.536831E-07
    3.420000E+00   -4.495391E-07
    3.430000E+00   -4.454082E-07
    3.440000E+00   -4.412909E-07
    3.450000E+00   -4.371877E-07
    3.460000E+00   -4.330991E-07
    3.470000E+00   -4.290255E-07
    3.480000E+00   -4.249675E-07
    3.490000E+00   -4.209253E-07
    3.500000E+00   -4.168996E-07
    3.510000E+00   -4.128906E-07
    3.520000E+00   -4.088988E-07
    3.530000E+00   -4.049246E-07
    3.540000E+00   -4.009684E-07
    3.550000E+00   -3.970305E-07
    3.560000E+00   -3.931112E-07
    3.570000E+00   -3.892110E-07
    3.580000E+00   -3.853302E-07
    3.590000E+00   -3.814691E-07
    3.600000E+00   -3.776279E-07
    3.610000E+00   -3.738070E-07
    3.620000E+00   -3.700068E-07
    3.630000E+00   -3.662273E-07
    3.640000E+00   -3.624690E-07
    3.650000E+00   -3.587321E-07
    3.660000E+00   -3.550167E-07
    3.670000E+00   -3.513232E-07
    3.680000E+00   -3.476518E-07
    3.690000E+00   -3.440027E-07
    3.700000E+00   -3.403760E-07
    3.710000E+00   -3.367720E-07
    3.720000E+00   -3.331909E-07
    3.730000E+00   -3.296328E-07
    3.740000E+00   -3.260979E-07
    3.750000E+00   -3.225864E-07
    3.760000E+00   -3.190983E-07
    3.770000E+00   -3.156339E-07
    3.780000E+00   -3.121933E-07
    3.790000E+00   -3.087765E-07
    3.800000E+00   -3.053837E-07
    3.810000E+00   -3.020151E-07
    3.820000E+00   -2.986706E-07
    3.830000E+00   -2.953503E-07
    3.840000E+00   -2.920545E-07
    3.850000E+00   -2.887830E-07
    3.860000E+00   -2.855361E-07
    3.870000E+00   -2.823137E-07
    3.880000E+00   -2.791159E-07
    3.890000E+00   -2.759427E-07
    3.900000E+00   -2.727943E-07
    3.910000E+00   -2.696705E-07
    3.920000E+00   -2.665715E-07
    3.930000E+00   -2.634972E-07
    3.940000E+00   -2.604476E-07
    3.950000E+00   -2.574228E-07
    3.960000E+00   -2.544228E-07
    3.970000E+00   -2.514475E-07
    3.980000E+00   -2.484970E-07
    3.990000E+00   -2.455712E-07
    4.000000E+00   -2.426701E-07
    4.010000E+00   -2.397936E-07
    4.020000E+00   -2.369418E-07
    4.030000E+00   -2.341146E-07
    4.040000E+00   -2.313119E-07
    4.050000E+00   -2.285338E-07
    4.060000E+00   -2.257801E-07
    4.070000E+00   -2.230508E-07
    4.080000E+00   -2.203458E-07
    4.090000E+00   -2.176651E-07
    4.100000E+00   -2.150086E-07
    4.110000E+00   -2.123763E-07
    4.120000E+00   -2.097680E-07
    4.130000E+00   -2.071836E-07
    4.140000E+00   -2.046232E-07
    4.150000E+00   -2.020866E-07
    4.160000E+00   -1.995736E-07
    4.170000E+00   -1.970843E-07
    4.180000E+00   -1.946185E-07
    4.190000E+00   -1.921762E-07
    4.200000E+00   -1.897572E-07
    4.210000E+00   -1.873613E-07
    4.220000E+00   -1.849886E-07
    4.230000E+00   -1.826389E-07
    4.240000E+00   -1.803121E-07
    4.250000E+00   -1.780081E-07
    4.260000E+00   -1.757267E-07
    4.270000E+00   -1.734679E-07
    4.280000E+00   -1.712315E-07
    4.290000E+00   -1.690174E-07
    4.300000E+00   -1.668255E-07
    4.310000E+00   -1.646556E-07
    4.320000E+00   -1.625076E-07
    4.330000E+00   -1.603814E-07
    4.340000E+00   -1.582769E-07
    4.350000E+00   -1.561939E-07
    4.360000E+00   -1.541323E-07
    4.370000E+00   -1.520920E-07
    4.380000E+00   -1.500727E-07
    4.390000E+00   -1.480745E-07
    4.400000E+00   -1.460971E-07
    4.410000E+00   -1.441404E-07
    4.420000E+00   -1.422043E-07
    4.430000E+00   -1.402886E-07
    4.440000E+00   -1.383932E-07
    4.450000E+00   -1.365179E-07
    4.460000E+00   -1.346627E-07
    4.470000E+00   -1.328272E-07
    4.480000E+00   -1.310115E-07
    4.490000E+00   -1.292154E-07
    4.500000E+00   -1.274386E-07
    4.510000E+00   -1.256811E-07
    4.520000E+00   -1.239428E-07
    4.530000E+00   -1.222234E-07
    4.540000E+00   -1.205229E-07
    4.550000E+00   -1.188410E-07
    4.560000E+00   -1.171777E-07
    4.570000E+00   -1.155327E-07
    4.580000E+00   -1.139060E-07
    4.590000E+00   -1.122974E-07
    4.600000E+00   -1.107067E-07
    4.610000E+00   -1.091338E-07
    4.620000E+00   -1.075786E-07
    4.630000E+00   -1.060408E-07
    4.640000E+00   -1.045204E-07
    4.650000E+00   -1.030172E-07
    4.660000E+00   -1.015311E-07
    4.670000E+00   -1.000618E-07
    4.680000E+00   -9.860938E-08
    4.690000E+00   -9.717352E-08
    4.700000E+00   -9.575413E-08
    4.710000E+00   -9.435107E-08
    4.720000E+00   -9.296418E-08
    4.730000E+00   -9.159333E-08
    4.740000E+00   -9.023836E-08
    4.750000E+00   -8.889913E-08
    4.760000E+00   -8.757551E-08
    4.770000E+00   -8.626734E-08
    4.780000E+00   -8.497448E-08
    4.790000E+00   -8.369680E-08
    4.800000E+00   -8.243415E-08
    4.810000E+00   -8.118638E-08
    4.820000E+00   -7.995337E-08
    4.830000E+00   -7.873496E-08
    4.840000E+00   -7.753102E-08
    4.850000E+00   -7.634141E-08
    4.860000E+00   -7.516600E-08
    4.870000E+00   -7.400465E-08
    4.880000E+00   -7.285721E-08
    4.890000E+00   -7.172356E-08
    4.900000E+00   -7.060356E-08
    4.910000E+00   -6.949707E-08
    4.920000E+00   -6.840396E-08
    4.930000E+00   -6.732411E-08
    4.940000E+00   -6.625737E-08
    4.950000E+00   -6.520361E-08
    4.960000E+00   -6.416271E-08
    4.970000E+00   -6.313454E-08
    4.980000E+00   -6.211897E-08
    4.990000E+00   -6.111586E-08
    5.000000E+00   -6.012510E-08
    5.010000E+00   -5.914655E-08
    5.020000E+00   -5.818009E-08
    5.030000E+00   -5.722560E-08
    5.040000E+00   -5.628295E-08
    5.050000E+00   -5.535202E-08
    5.060000E+00   -5.443269E-08
    5.070000E+00   -5.352483E-08
    5.080000E+00   -5.262833E-08
    5.090000E+00   -5.174307E-08
    5.100000E+00   -5.086892E-08
    5.110000E+00   -5.000578E-08
    5.120000E+00   -4.915352E-08
    5.130000E+00   -4.831202E-08
    5.140000E+00   -4.748118E-08
    5.150000E+00   -4.666088E-08
    5.160000E+00   -4.585100E-08
    5.170000E+00   -4.505144E-08
    5.180000E+00   -4.426208E-08
    5.190000E+00   -4.348281E-08
    5.200000E+00   -4.271352E-08
    5.210000E+00   -4.195411E-08
    5.220000E+00   -4.120446E-08
    5.230000E+00   -4.046447E-08
    5.240000E+00   -3.973403E-08
    5.250000E+00   -3.901304E-08
    5.260000E+00   -3.830139E-08
    5.270000E+00   -3.759899E-08
    5.280000E+00   -3.690572E-08
    5.290000E+00   -3.622148E-08
    5.300000E+00   -3.554619E-08
    5.310000E+00   -3.487972E-08
    5.320000E+00   -3.422200E-08
    5.330000E+00   -3.357291E-08
    5.340000E+00   -3.293236E-08
    5.350000E+00   -3.230026E-08
    5.360000E+00   -3.167651E-08
    5.370000E+00   -3.106102E-08
    5.380000E+00   -3.045369E-08
    5.390000E+00   -2.985442E-08
    5.400000E+00   -2.926314E-08
    5.410000E+00   -2.867974E-08
    5.420000E+00   -2.810413E-08
    5.430000E+00   -2.753624E-08
    5.440000E+00   -2.697596E-08
    5.450000E+00   -2.642321E-08
    5.460000E+00   -2.587790E-08
    5.470000E+00   -2.533996E-08
    5.480000E+00   -2.480928E-08
    5.490000E+00   -2.428579E-08
    5.500000E+00   -2.376941E-08
    5.510000E+00   -2.326005E-08
    5.520000E+00   -2.275763E-08
    5.530000E+00   -2.226207E-08
    5.540000E+00   -2.177329E-08
    5.550000E+00   -2.129121E-08
    5.560000E+00   -2.081574E-08
    5.570000E+00   -2.034682E-08
    5.580000E+00   -1.988437E-08
    5.590000E+00   -1.942830E-08
    5.600000E+00   -1.897855E-08
    5.610000E+00   -1.853504E-08
    5.620000E+00   -1.809769E-08
    5.630000E+00   -1.766643E-08
    5.640000E+00   -1.724120E-08
    5.650000E+00   -1.682191E-08
    5.660000E+00   -1.640849E-08
    5.670000E+00   -1.600088E-08
    5.680000E+00   -1.559901E-08
    5.690000E+00   -1.520281E-08
    5.700000E+00   -1.481220E-08
    5.710000E+00   -1.442713E-08
    5.720000E+00   -1.404752E-08
    5.730000E+00   -1.367331E-08
    5.740000E+00   -1.330443E-08
    5.750000E+00   -1.294083E-08
    5.760000E+00   -1.258242E-08
    5.770000E+00   -1.222916E-08
    5.780000E+00   -1.188098E-08
    5.790000E+00   -1.153782E-08
    5.800000E+00   -1.119961E-08
    5.810000E+00   -1.086630E-08
    5.820000E+00   -1.053783E-08
    5.830000E+00   -1.021413E-08
    5.840000E+00   -9.895147E-09
    5.850000E+00   -9.580825E-09
    5.860000E+00   -9.271106E-09
    5.870000E+00   -8.965933E-09
    5.880000E+00   -8.665249E-09
    5.890000E+00   -8.368999E-09
    5.900000E+00   -8.077128E-09
    5.910000E+00   -7.789582E-09
    5.920000E+00   -7.506307E-09
    5.930000E+00   -7.227250E-09
    5.940000E+00   -6.952358E-09
    5.950000E+00   -6.681581E-09
    5.960000E+00   -6.414865E-09
    5.970000E+00   -6.152161E-09
    5.980000E+00   -5.893418E-09
    5.990000E+00   -5.638587E-09
    6.000000E+00   -5.387618E-09
    6.010000E+00   -5.140463E-09
    6.020000E+00   -4.897075E-09
    6.030000E+00   -4.657404E-09
